"# Channel 1"
"# Trace 1"
Frequency, Formatted Data, Formatted Data
+1.10000000000E+009, +8.96822290169E+001, +0.00000000000E+000
+1.10350000000E+009, +8.81969452915E+001, +0.00000000000E+000
+1.10700000000E+009, +8.68168747135E+001, +0.00000000000E+000
+1.11050000000E+009, +8.55118564876E+001, +0.00000000000E+000
+1.11400000000E+009, +8.43386222787E+001, +0.00000000000E+000
+1.11750000000E+009, +8.29185981711E+001, +0.00000000000E+000
+1.12100000000E+009, +8.17629842897E+001, +0.00000000000E+000
+1.12450000000E+009, +8.04148000715E+001, +0.00000000000E+000
+1.12800000000E+009, +7.91991160746E+001, +0.00000000000E+000
+1.13150000000E+009, +7.79628500553E+001, +0.00000000000E+000
+1.13500000000E+009, +7.66809567360E+001, +0.00000000000E+000
+1.13850000000E+009, +7.52293546906E+001, +0.00000000000E+000
+1.14200000000E+009, +7.38364420876E+001, +0.00000000000E+000
+1.14550000000E+009, +7.24357971855E+001, +0.00000000000E+000
+1.14900000000E+009, +7.08488114817E+001, +0.00000000000E+000
+1.15250000000E+009, +6.92108409503E+001, +0.00000000000E+000
+1.15600000000E+009, +6.74637913896E+001, +0.00000000000E+000
+1.15950000000E+009, +6.58643748091E+001, +0.00000000000E+000
+1.16300000000E+009, +6.39327445059E+001, +0.00000000000E+000
+1.16650000000E+009, +6.18799756737E+001, +0.00000000000E+000
+1.17000000000E+009, +6.01378161668E+001, +0.00000000000E+000
+1.17350000000E+009, +5.78738706348E+001, +0.00000000000E+000
+1.17700000000E+009, +5.57642115533E+001, +0.00000000000E+000
+1.18050000000E+009, +5.32288711765E+001, +0.00000000000E+000
+1.18400000000E+009, +5.09477324418E+001, +0.00000000000E+000
+1.18750000000E+009, +4.85109562440E+001, +0.00000000000E+000
+1.19100000000E+009, +4.59352096753E+001, +0.00000000000E+000
+1.19450000000E+009, +4.31145764266E+001, +0.00000000000E+000
+1.19800000000E+009, +4.05808062070E+001, +0.00000000000E+000
+1.20150000000E+009, +3.78233404636E+001, +0.00000000000E+000
+1.20500000000E+009, +3.50939307807E+001, +0.00000000000E+000
+1.20850000000E+009, +3.21305213497E+001, +0.00000000000E+000
+1.21200000000E+009, +2.96209159081E+001, +0.00000000000E+000
+1.21550000000E+009, +2.68278020673E+001, +0.00000000000E+000
+1.21900000000E+009, +2.39703996965E+001, +0.00000000000E+000
+1.22250000000E+009, +2.14535889391E+001, +0.00000000000E+000
+1.22600000000E+009, +1.86143249352E+001, +0.00000000000E+000
+1.22950000000E+009, +1.57888922117E+001, +0.00000000000E+000
+1.23300000000E+009, +1.34893651498E+001, +0.00000000000E+000
+1.23650000000E+009, +1.09401022866E+001, +0.00000000000E+000
+1.24000000000E+009, +8.52952349021E+000, +0.00000000000E+000
+1.24350000000E+009, +6.10641020927E+000, +0.00000000000E+000
+1.24700000000E+009, +3.57834852096E+000, +0.00000000000E+000
+1.25050000000E+009, +1.16562290687E+000, +0.00000000000E+000
+1.25400000000E+009, -9.97998965260E-001, +0.00000000000E+000
+1.25750000000E+009, -3.13482196737E+000, +0.00000000000E+000
+1.26100000000E+009, -5.49782585535E+000, +0.00000000000E+000
+1.26450000000E+009, -7.54748634736E+000, +0.00000000000E+000
+1.26800000000E+009, -9.70094415592E+000, +0.00000000000E+000
+1.27150000000E+009, -1.19971070739E+001, +0.00000000000E+000
+1.27500000000E+009, -1.41438205576E+001, +0.00000000000E+000
+1.27850000000E+009, -1.62682203342E+001, +0.00000000000E+000
+1.28200000000E+009, -1.85421528758E+001, +0.00000000000E+000
+1.28550000000E+009, -2.05882306519E+001, +0.00000000000E+000
+1.28900000000E+009, -2.28527292304E+001, +0.00000000000E+000
+1.29250000000E+009, -2.49042597693E+001, +0.00000000000E+000
+1.29600000000E+009, -2.74675133119E+001, +0.00000000000E+000
+1.29950000000E+009, -2.98604913987E+001, +0.00000000000E+000
+1.30300000000E+009, -3.22191502556E+001, +0.00000000000E+000
+1.30650000000E+009, -3.49039835351E+001, +0.00000000000E+000
+1.31000000000E+009, -3.72762506647E+001, +0.00000000000E+000
+1.31350000000E+009, -3.99776730866E+001, +0.00000000000E+000
+1.31700000000E+009, -4.26646654872E+001, +0.00000000000E+000
+1.32050000000E+009, -4.54329557885E+001, +0.00000000000E+000
+1.32400000000E+009, -4.88741681553E+001, +0.00000000000E+000
+1.32750000000E+009, -5.21341983028E+001, +0.00000000000E+000
+1.33100000000E+009, -5.52171897973E+001, +0.00000000000E+000
+1.33450000000E+009, -5.90007214311E+001, +0.00000000000E+000
+1.33800000000E+009, -6.31348767151E+001, +0.00000000000E+000
+1.34150000000E+009, -6.68839517669E+001, +0.00000000000E+000
+1.34500000000E+009, -7.07514323622E+001, +0.00000000000E+000
+1.34850000000E+009, -7.49592450844E+001, +0.00000000000E+000
+1.35200000000E+009, -7.90619605288E+001, +0.00000000000E+000
+1.35550000000E+009, -8.31204542510E+001, +0.00000000000E+000
+1.35900000000E+009, -8.71647763485E+001, +0.00000000000E+000
+1.36250000000E+009, -9.11547304601E+001, +0.00000000000E+000
+1.36600000000E+009, -9.44523772009E+001, +0.00000000000E+000
+1.36950000000E+009, -9.80226562423E+001, +0.00000000000E+000
+1.37300000000E+009, -1.00910823184E+002, +0.00000000000E+000
+1.37650000000E+009, -1.03535691172E+002, +0.00000000000E+000
+1.38000000000E+009, -1.06134494945E+002, +0.00000000000E+000
+1.38350000000E+009, -1.08301942245E+002, +0.00000000000E+000
+1.38700000000E+009, -1.09877291662E+002, +0.00000000000E+000
+1.39050000000E+009, -1.11521815756E+002, +0.00000000000E+000
+1.39400000000E+009, -1.12622032273E+002, +0.00000000000E+000
+1.39750000000E+009, -1.13425406492E+002, +0.00000000000E+000
+1.40100000000E+009, -1.14433157430E+002, +0.00000000000E+000
+1.40450000000E+009, -1.14888206367E+002, +0.00000000000E+000
+1.40800000000E+009, -1.15578853476E+002, +0.00000000000E+000
+1.41150000000E+009, -1.15345653313E+002, +0.00000000000E+000
+1.41500000000E+009, -1.15833338291E+002, +0.00000000000E+000
+1.41850000000E+009, -1.16254542695E+002, +0.00000000000E+000
+1.42200000000E+009, -1.15900846689E+002, +0.00000000000E+000
+1.42550000000E+009, -1.15726661932E+002, +0.00000000000E+000
+1.42900000000E+009, -1.15440490978E+002, +0.00000000000E+000
+1.43250000000E+009, -1.15149072195E+002, +0.00000000000E+000
+1.43600000000E+009, -1.15477745400E+002, +0.00000000000E+000
+1.43950000000E+009, -1.14983418633E+002, +0.00000000000E+000
+1.44300000000E+009, -1.14682362437E+002, +0.00000000000E+000
+1.44650000000E+009, -1.14018098240E+002, +0.00000000000E+000
+1.45000000000E+009, -1.13460290970E+002, +0.00000000000E+000
+1.45350000000E+009, -1.12436399461E+002, +0.00000000000E+000
+1.45700000000E+009, -1.12372282501E+002, +0.00000000000E+000
+1.46050000000E+009, -1.09453353029E+002, +0.00000000000E+000
+1.46400000000E+009, -1.08085221188E+002, +0.00000000000E+000
+1.46750000000E+009, -1.01926387236E+002, +0.00000000000E+000
+1.47100000000E+009, -9.22233346571E+001, +0.00000000000E+000
+1.47450000000E+009, -4.58337829187E+001, +0.00000000000E+000
+1.47800000000E+009, +2.82604002488E+001, +0.00000000000E+000
+1.48150000000E+009, +4.37846729500E+001, +0.00000000000E+000
+1.48500000000E+009, +5.07007035324E+001, +0.00000000000E+000
+1.48850000000E+009, +5.44034341263E+001, +0.00000000000E+000
+1.49200000000E+009, +5.61241956922E+001, +0.00000000000E+000
+1.49550000000E+009, +5.65899188627E+001, +0.00000000000E+000
+1.49900000000E+009, +5.79966219019E+001, +0.00000000000E+000
+1.50250000000E+009, +5.86000113492E+001, +0.00000000000E+000
+1.50600000000E+009, +5.88653385052E+001, +0.00000000000E+000
+1.50950000000E+009, +5.93998077177E+001, +0.00000000000E+000
+1.51300000000E+009, +6.00507304731E+001, +0.00000000000E+000
+1.51650000000E+009, +6.04716545676E+001, +0.00000000000E+000
+1.52000000000E+009, +6.05899703971E+001, +0.00000000000E+000
+1.52350000000E+009, +6.09809467118E+001, +0.00000000000E+000
+1.52700000000E+009, +6.12940575131E+001, +0.00000000000E+000
+1.53050000000E+009, +6.13857219544E+001, +0.00000000000E+000
+1.53400000000E+009, +6.14153630261E+001, +0.00000000000E+000
+1.53750000000E+009, +6.14723483847E+001, +0.00000000000E+000
+1.54100000000E+009, +6.14530512508E+001, +0.00000000000E+000
+1.54450000000E+009, +6.14540221996E+001, +0.00000000000E+000
+1.54800000000E+009, +6.13300241094E+001, +0.00000000000E+000
+1.55150000000E+009, +6.09861602912E+001, +0.00000000000E+000
+1.55500000000E+009, +6.02695225086E+001, +0.00000000000E+000
+1.55850000000E+009, +5.97004214775E+001, +0.00000000000E+000
+1.56200000000E+009, +5.83094953409E+001, +0.00000000000E+000
+1.56550000000E+009, +5.69824679982E+001, +0.00000000000E+000
+1.56900000000E+009, +5.48555319793E+001, +0.00000000000E+000
+1.57250000000E+009, +5.21657804983E+001, +0.00000000000E+000
+1.57600000000E+009, +4.86205867897E+001, +0.00000000000E+000
+1.57950000000E+009, +4.41326663215E+001, +0.00000000000E+000
+1.58300000000E+009, +3.87217672207E+001, +0.00000000000E+000
+1.58650000000E+009, +3.24076242877E+001, +0.00000000000E+000
+1.59000000000E+009, +2.44932092685E+001, +0.00000000000E+000
+1.59350000000E+009, +1.66884917536E+001, +0.00000000000E+000
+1.59700000000E+009, +8.03619966066E+000, +0.00000000000E+000
+1.60050000000E+009, +5.65316743694E-001, +0.00000000000E+000
+1.60400000000E+009, -6.56953233199E+000, +0.00000000000E+000
+1.60750000000E+009, -1.22493234537E+001, +0.00000000000E+000
+1.61100000000E+009, -1.71113916766E+001, +0.00000000000E+000
+1.61450000000E+009, -2.07470528053E+001, +0.00000000000E+000
+1.61800000000E+009, -2.38623555208E+001, +0.00000000000E+000
+1.62150000000E+009, -2.64425461167E+001, +0.00000000000E+000
+1.62500000000E+009, -2.81416402744E+001, +0.00000000000E+000
+1.62850000000E+009, -2.98239827470E+001, +0.00000000000E+000
+1.63200000000E+009, -3.08714072470E+001, +0.00000000000E+000
+1.63550000000E+009, -3.19767696553E+001, +0.00000000000E+000
+1.63900000000E+009, -3.30311996705E+001, +0.00000000000E+000
+1.64250000000E+009, -3.40333104811E+001, +0.00000000000E+000
+1.64600000000E+009, -3.42599988540E+001, +0.00000000000E+000
+1.64950000000E+009, -3.51393970455E+001, +0.00000000000E+000
+1.65300000000E+009, -3.57933012963E+001, +0.00000000000E+000
+1.65650000000E+009, -3.66169145786E+001, +0.00000000000E+000
+1.66000000000E+009, -3.74134610510E+001, +0.00000000000E+000
+1.66350000000E+009, -3.80346512703E+001, +0.00000000000E+000
+1.66700000000E+009, -3.86881327869E+001, +0.00000000000E+000
+1.67050000000E+009, -3.95751385238E+001, +0.00000000000E+000
+1.67400000000E+009, -4.04698522690E+001, +0.00000000000E+000
+1.67750000000E+009, -4.14789344121E+001, +0.00000000000E+000
+1.68100000000E+009, -4.25889503452E+001, +0.00000000000E+000
+1.68450000000E+009, -4.37035373037E+001, +0.00000000000E+000
+1.68800000000E+009, -4.52544216764E+001, +0.00000000000E+000
+1.69150000000E+009, -4.67578361200E+001, +0.00000000000E+000
+1.69500000000E+009, -4.85570695881E+001, +0.00000000000E+000
+1.69850000000E+009, -5.02859256749E+001, +0.00000000000E+000
+1.70200000000E+009, -5.23686594413E+001, +0.00000000000E+000
+1.70550000000E+009, -5.47439747350E+001, +0.00000000000E+000
+1.70900000000E+009, -5.73255330697E+001, +0.00000000000E+000
+1.71250000000E+009, -6.02641550463E+001, +0.00000000000E+000
+1.71600000000E+009, -6.32962769497E+001, +0.00000000000E+000
+1.71950000000E+009, -6.69674903850E+001, +0.00000000000E+000
+1.72300000000E+009, -7.06177144570E+001, +0.00000000000E+000
+1.72650000000E+009, -7.50864503209E+001, +0.00000000000E+000
+1.73000000000E+009, -7.94416816698E+001, +0.00000000000E+000
+1.73350000000E+009, -8.40772812759E+001, +0.00000000000E+000
+1.73700000000E+009, -8.92580691677E+001, +0.00000000000E+000
+1.74050000000E+009, -9.45263939534E+001, +0.00000000000E+000
+1.74400000000E+009, -9.98638741034E+001, +0.00000000000E+000
+1.74750000000E+009, -1.05208767139E+002, +0.00000000000E+000
+1.75100000000E+009, -1.10514138054E+002, +0.00000000000E+000
+1.75450000000E+009, -1.15263825982E+002, +0.00000000000E+000
+1.75800000000E+009, -1.19777102001E+002, +0.00000000000E+000
+1.76150000000E+009, -1.24099695654E+002, +0.00000000000E+000
+1.76500000000E+009, -1.27913807975E+002, +0.00000000000E+000
+1.76850000000E+009, -1.30799451576E+002, +0.00000000000E+000
+1.77200000000E+009, -1.34032250902E+002, +0.00000000000E+000
+1.77550000000E+009, -1.36462622545E+002, +0.00000000000E+000
+1.77900000000E+009, -1.38779163265E+002, +0.00000000000E+000
+1.78250000000E+009, -1.40347726060E+002, +0.00000000000E+000
+1.78600000000E+009, -1.41969337243E+002, +0.00000000000E+000
+1.78950000000E+009, -1.43077172051E+002, +0.00000000000E+000
+1.79300000000E+009, -1.44145053398E+002, +0.00000000000E+000
+1.79650000000E+009, -1.44988575118E+002, +0.00000000000E+000
+1.80000000000E+009, -1.45706730472E+002, +0.00000000000E+000
