"# Channel 1"
"# Trace 1"
Frequency, Formatted Data, Formatted Data
+1.10000000000E+009, -1.11212814853E+002, +0.00000000000E+000
+1.10350000000E+009, -1.12371167646E+002, +0.00000000000E+000
+1.10700000000E+009, -1.13481320149E+002, +0.00000000000E+000
+1.11050000000E+009, -1.14481241980E+002, +0.00000000000E+000
+1.11400000000E+009, -1.15604302289E+002, +0.00000000000E+000
+1.11750000000E+009, -1.16558671805E+002, +0.00000000000E+000
+1.12100000000E+009, -1.17608358020E+002, +0.00000000000E+000
+1.12450000000E+009, -1.18633269659E+002, +0.00000000000E+000
+1.12800000000E+009, -1.19368874535E+002, +0.00000000000E+000
+1.13150000000E+009, -1.20464238032E+002, +0.00000000000E+000
+1.13500000000E+009, -1.21114088628E+002, +0.00000000000E+000
+1.13850000000E+009, -1.21971787432E+002, +0.00000000000E+000
+1.14200000000E+009, -1.22809992958E+002, +0.00000000000E+000
+1.14550000000E+009, -1.23762379467E+002, +0.00000000000E+000
+1.14900000000E+009, -1.24458801510E+002, +0.00000000000E+000
+1.15250000000E+009, -1.25236102698E+002, +0.00000000000E+000
+1.15600000000E+009, -1.26081898392E+002, +0.00000000000E+000
+1.15950000000E+009, -1.27027912707E+002, +0.00000000000E+000
+1.16300000000E+009, -1.27604594052E+002, +0.00000000000E+000
+1.16650000000E+009, -1.28557597221E+002, +0.00000000000E+000
+1.17000000000E+009, -1.29487675093E+002, +0.00000000000E+000
+1.17350000000E+009, -1.30362560826E+002, +0.00000000000E+000
+1.17700000000E+009, -1.31416220495E+002, +0.00000000000E+000
+1.18050000000E+009, -1.32167979109E+002, +0.00000000000E+000
+1.18400000000E+009, -1.33170030486E+002, +0.00000000000E+000
+1.18750000000E+009, -1.34120593747E+002, +0.00000000000E+000
+1.19100000000E+009, -1.35390325280E+002, +0.00000000000E+000
+1.19450000000E+009, -1.36496719948E+002, +0.00000000000E+000
+1.19800000000E+009, -1.37556752122E+002, +0.00000000000E+000
+1.20150000000E+009, -1.38528322327E+002, +0.00000000000E+000
+1.20500000000E+009, -1.39643539557E+002, +0.00000000000E+000
+1.20850000000E+009, -1.40793657612E+002, +0.00000000000E+000
+1.21200000000E+009, -1.42097001619E+002, +0.00000000000E+000
+1.21550000000E+009, -1.43152290537E+002, +0.00000000000E+000
+1.21900000000E+009, -1.44323048250E+002, +0.00000000000E+000
+1.22250000000E+009, -1.45519805408E+002, +0.00000000000E+000
+1.22600000000E+009, -1.46650369788E+002, +0.00000000000E+000
+1.22950000000E+009, -1.47849663538E+002, +0.00000000000E+000
+1.23300000000E+009, -1.48911658311E+002, +0.00000000000E+000
+1.23650000000E+009, -1.49982767409E+002, +0.00000000000E+000
+1.24000000000E+009, -1.51164496504E+002, +0.00000000000E+000
+1.24350000000E+009, -1.52267441810E+002, +0.00000000000E+000
+1.24700000000E+009, -1.53392702985E+002, +0.00000000000E+000
+1.25050000000E+009, -1.54622731521E+002, +0.00000000000E+000
+1.25400000000E+009, -1.55554931975E+002, +0.00000000000E+000
+1.25750000000E+009, -1.56692992676E+002, +0.00000000000E+000
+1.26100000000E+009, -1.57669067256E+002, +0.00000000000E+000
+1.26450000000E+009, -1.58777337406E+002, +0.00000000000E+000
+1.26800000000E+009, -1.59939314095E+002, +0.00000000000E+000
+1.27150000000E+009, -1.60860604051E+002, +0.00000000000E+000
+1.27500000000E+009, -1.62067891662E+002, +0.00000000000E+000
+1.27850000000E+009, -1.63123807556E+002, +0.00000000000E+000
+1.28200000000E+009, -1.64147417281E+002, +0.00000000000E+000
+1.28550000000E+009, -1.65273727058E+002, +0.00000000000E+000
+1.28900000000E+009, -1.66499560122E+002, +0.00000000000E+000
+1.29250000000E+009, -1.67485171483E+002, +0.00000000000E+000
+1.29600000000E+009, -1.68521282365E+002, +0.00000000000E+000
+1.29950000000E+009, -1.69501254210E+002, +0.00000000000E+000
+1.30300000000E+009, -1.70773988843E+002, +0.00000000000E+000
+1.30650000000E+009, -1.71629249613E+002, +0.00000000000E+000
+1.31000000000E+009, -1.72671969198E+002, +0.00000000000E+000
+1.31350000000E+009, -1.73844907319E+002, +0.00000000000E+000
+1.31700000000E+009, -1.74837265585E+002, +0.00000000000E+000
+1.32050000000E+009, -1.75849322674E+002, +0.00000000000E+000
+1.32400000000E+009, -1.77089488712E+002, +0.00000000000E+000
+1.32750000000E+009, -1.77962002090E+002, +0.00000000000E+000
+1.33100000000E+009, -1.79094371721E+002, +0.00000000000E+000
+1.33450000000E+009, +1.79986615765E+002, +0.00000000000E+000
+1.33800000000E+009, +1.78745490829E+002, +0.00000000000E+000
+1.34150000000E+009, +1.77864697006E+002, +0.00000000000E+000
+1.34500000000E+009, +1.76683862348E+002, +0.00000000000E+000
+1.34850000000E+009, +1.75765252642E+002, +0.00000000000E+000
+1.35200000000E+009, +1.74565504896E+002, +0.00000000000E+000
+1.35550000000E+009, +1.73331806849E+002, +0.00000000000E+000
+1.35900000000E+009, +1.72443541248E+002, +0.00000000000E+000
+1.36250000000E+009, +1.71346935136E+002, +0.00000000000E+000
+1.36600000000E+009, +1.69921607726E+002, +0.00000000000E+000
+1.36950000000E+009, +1.68857877218E+002, +0.00000000000E+000
+1.37300000000E+009, +1.67540057093E+002, +0.00000000000E+000
+1.37650000000E+009, +1.66231107626E+002, +0.00000000000E+000
+1.38000000000E+009, +1.64962731914E+002, +0.00000000000E+000
+1.38350000000E+009, +1.63488432910E+002, +0.00000000000E+000
+1.38700000000E+009, +1.62325323534E+002, +0.00000000000E+000
+1.39050000000E+009, +1.60902766208E+002, +0.00000000000E+000
+1.39400000000E+009, +1.59583840461E+002, +0.00000000000E+000
+1.39750000000E+009, +1.58118675971E+002, +0.00000000000E+000
+1.40100000000E+009, +1.56661327619E+002, +0.00000000000E+000
+1.40450000000E+009, +1.55265751130E+002, +0.00000000000E+000
+1.40800000000E+009, +1.53870455224E+002, +0.00000000000E+000
+1.41150000000E+009, +1.52310364533E+002, +0.00000000000E+000
+1.41500000000E+009, +1.50880088829E+002, +0.00000000000E+000
+1.41850000000E+009, +1.49567187349E+002, +0.00000000000E+000
+1.42200000000E+009, +1.48191894588E+002, +0.00000000000E+000
+1.42550000000E+009, +1.46650316683E+002, +0.00000000000E+000
+1.42900000000E+009, +1.45352372644E+002, +0.00000000000E+000
+1.43250000000E+009, +1.43971547117E+002, +0.00000000000E+000
+1.43600000000E+009, +1.42628895893E+002, +0.00000000000E+000
+1.43950000000E+009, +1.41235159326E+002, +0.00000000000E+000
+1.44300000000E+009, +1.39979491857E+002, +0.00000000000E+000
+1.44650000000E+009, +1.38818013638E+002, +0.00000000000E+000
+1.45000000000E+009, +1.37566020542E+002, +0.00000000000E+000
+1.45350000000E+009, +1.36391159183E+002, +0.00000000000E+000
+1.45700000000E+009, +1.35152209194E+002, +0.00000000000E+000
+1.46050000000E+009, +1.34131715115E+002, +0.00000000000E+000
+1.46400000000E+009, +1.32950629099E+002, +0.00000000000E+000
+1.46750000000E+009, +1.31839312013E+002, +0.00000000000E+000
+1.47100000000E+009, +1.30538824377E+002, +0.00000000000E+000
+1.47450000000E+009, +1.29429854396E+002, +0.00000000000E+000
+1.47800000000E+009, +1.28338615304E+002, +0.00000000000E+000
+1.48150000000E+009, +1.27091149515E+002, +0.00000000000E+000
+1.48500000000E+009, +1.25883505761E+002, +0.00000000000E+000
+1.48850000000E+009, +1.24758657253E+002, +0.00000000000E+000
+1.49200000000E+009, +1.23467902382E+002, +0.00000000000E+000
+1.49550000000E+009, +1.22340758582E+002, +0.00000000000E+000
+1.49900000000E+009, +1.21200511526E+002, +0.00000000000E+000
+1.50250000000E+009, +1.19777257796E+002, +0.00000000000E+000
+1.50600000000E+009, +1.18606374958E+002, +0.00000000000E+000
+1.50950000000E+009, +1.17339060310E+002, +0.00000000000E+000
+1.51300000000E+009, +1.15825965229E+002, +0.00000000000E+000
+1.51650000000E+009, +1.14558196051E+002, +0.00000000000E+000
+1.52000000000E+009, +1.13139150969E+002, +0.00000000000E+000
+1.52350000000E+009, +1.11752480311E+002, +0.00000000000E+000
+1.52700000000E+009, +1.10499316831E+002, +0.00000000000E+000
+1.53050000000E+009, +1.08932770632E+002, +0.00000000000E+000
+1.53400000000E+009, +1.07650177060E+002, +0.00000000000E+000
+1.53750000000E+009, +1.06146882441E+002, +0.00000000000E+000
+1.54100000000E+009, +1.04705477926E+002, +0.00000000000E+000
+1.54450000000E+009, +1.03235492792E+002, +0.00000000000E+000
+1.54800000000E+009, +1.01857564226E+002, +0.00000000000E+000
+1.55150000000E+009, +1.00509845185E+002, +0.00000000000E+000
+1.55500000000E+009, +9.90612471758E+001, +0.00000000000E+000
+1.55850000000E+009, +9.75628141521E+001, +0.00000000000E+000
+1.56200000000E+009, +9.62954701652E+001, +0.00000000000E+000
+1.56550000000E+009, +9.49891935028E+001, +0.00000000000E+000
+1.56900000000E+009, +9.34822083496E+001, +0.00000000000E+000
+1.57250000000E+009, +9.21640340641E+001, +0.00000000000E+000
+1.57600000000E+009, +9.09045643977E+001, +0.00000000000E+000
+1.57950000000E+009, +8.96068593608E+001, +0.00000000000E+000
+1.58300000000E+009, +8.84581877335E+001, +0.00000000000E+000
+1.58650000000E+009, +8.72223791569E+001, +0.00000000000E+000
+1.59000000000E+009, +8.59489710817E+001, +0.00000000000E+000
+1.59350000000E+009, +8.48357439580E+001, +0.00000000000E+000
+1.59700000000E+009, +8.36927830433E+001, +0.00000000000E+000
+1.60050000000E+009, +8.24152461714E+001, +0.00000000000E+000
+1.60400000000E+009, +8.12038239929E+001, +0.00000000000E+000
+1.60750000000E+009, +7.99376747885E+001, +0.00000000000E+000
+1.61100000000E+009, +7.87219262493E+001, +0.00000000000E+000
+1.61450000000E+009, +7.74858802403E+001, +0.00000000000E+000
+1.61800000000E+009, +7.61465423985E+001, +0.00000000000E+000
+1.62150000000E+009, +7.48998929346E+001, +0.00000000000E+000
+1.62500000000E+009, +7.36187599183E+001, +0.00000000000E+000
+1.62850000000E+009, +7.23771315734E+001, +0.00000000000E+000
+1.63200000000E+009, +7.10398632578E+001, +0.00000000000E+000
+1.63550000000E+009, +6.96262572241E+001, +0.00000000000E+000
+1.63900000000E+009, +6.83342201375E+001, +0.00000000000E+000
+1.64250000000E+009, +6.71333489702E+001, +0.00000000000E+000
+1.64600000000E+009, +6.56896108215E+001, +0.00000000000E+000
+1.64950000000E+009, +6.44121101840E+001, +0.00000000000E+000
+1.65300000000E+009, +6.31778356532E+001, +0.00000000000E+000
+1.65650000000E+009, +6.19776745746E+001, +0.00000000000E+000
+1.66000000000E+009, +6.08756010539E+001, +0.00000000000E+000
+1.66350000000E+009, +5.95339658043E+001, +0.00000000000E+000
+1.66700000000E+009, +5.84639415144E+001, +0.00000000000E+000
+1.67050000000E+009, +5.72315638598E+001, +0.00000000000E+000
+1.67400000000E+009, +5.61266040226E+001, +0.00000000000E+000
+1.67750000000E+009, +5.51521535742E+001, +0.00000000000E+000
+1.68100000000E+009, +5.42151870937E+001, +0.00000000000E+000
+1.68450000000E+009, +5.30583490291E+001, +0.00000000000E+000
+1.68800000000E+009, +5.20404836271E+001, +0.00000000000E+000
+1.69150000000E+009, +5.08273896862E+001, +0.00000000000E+000
+1.69500000000E+009, +4.97277185701E+001, +0.00000000000E+000
+1.69850000000E+009, +4.88689633925E+001, +0.00000000000E+000
+1.70200000000E+009, +4.77194255473E+001, +0.00000000000E+000
+1.70550000000E+009, +4.67180060996E+001, +0.00000000000E+000
+1.70900000000E+009, +4.55021798851E+001, +0.00000000000E+000
+1.71250000000E+009, +4.45183162032E+001, +0.00000000000E+000
+1.71600000000E+009, +4.33110668729E+001, +0.00000000000E+000
+1.71950000000E+009, +4.20675504016E+001, +0.00000000000E+000
+1.72300000000E+009, +4.08580880864E+001, +0.00000000000E+000
+1.72650000000E+009, +3.97202006087E+001, +0.00000000000E+000
+1.73000000000E+009, +3.85449510946E+001, +0.00000000000E+000
+1.73350000000E+009, +3.72447825090E+001, +0.00000000000E+000
+1.73700000000E+009, +3.59535363613E+001, +0.00000000000E+000
+1.74050000000E+009, +3.47888640073E+001, +0.00000000000E+000
+1.74400000000E+009, +3.33625861267E+001, +0.00000000000E+000
+1.74750000000E+009, +3.22604534756E+001, +0.00000000000E+000
+1.75100000000E+009, +3.08467544827E+001, +0.00000000000E+000
+1.75450000000E+009, +2.97607842354E+001, +0.00000000000E+000
+1.75800000000E+009, +2.85050802877E+001, +0.00000000000E+000
+1.76150000000E+009, +2.72072722595E+001, +0.00000000000E+000
+1.76500000000E+009, +2.60983723931E+001, +0.00000000000E+000
+1.76850000000E+009, +2.49738837153E+001, +0.00000000000E+000
+1.77200000000E+009, +2.40081183527E+001, +0.00000000000E+000
+1.77550000000E+009, +2.28542646802E+001, +0.00000000000E+000
+1.77900000000E+009, +2.19469472602E+001, +0.00000000000E+000
+1.78250000000E+009, +2.07326701878E+001, +0.00000000000E+000
+1.78600000000E+009, +1.98540326535E+001, +0.00000000000E+000
+1.78950000000E+009, +1.90030052629E+001, +0.00000000000E+000
+1.79300000000E+009, +1.80513585112E+001, +0.00000000000E+000
+1.79650000000E+009, +1.69960749850E+001, +0.00000000000E+000
+1.80000000000E+009, +1.61540668699E+001, +0.00000000000E+000
