"# Channel 1"
"# Trace 1"
Frequency, Formatted Data, Formatted Data
+1.10000000000E+009, -1.30949431794E+002, +0.00000000000E+000
+1.10350000000E+009, -1.32074591454E+002, +0.00000000000E+000
+1.10700000000E+009, -1.33593331724E+002, +0.00000000000E+000
+1.11050000000E+009, -1.33784686926E+002, +0.00000000000E+000
+1.11400000000E+009, -1.35290661961E+002, +0.00000000000E+000
+1.11750000000E+009, -1.35444533256E+002, +0.00000000000E+000
+1.12100000000E+009, -1.35921237008E+002, +0.00000000000E+000
+1.12450000000E+009, -1.37225559714E+002, +0.00000000000E+000
+1.12800000000E+009, -1.38893726630E+002, +0.00000000000E+000
+1.13150000000E+009, -1.39343354074E+002, +0.00000000000E+000
+1.13500000000E+009, -1.39868469109E+002, +0.00000000000E+000
+1.13850000000E+009, -1.40456888577E+002, +0.00000000000E+000
+1.14200000000E+009, -1.41499901574E+002, +0.00000000000E+000
+1.14550000000E+009, -1.42249631020E+002, +0.00000000000E+000
+1.14900000000E+009, -1.43099680032E+002, +0.00000000000E+000
+1.15250000000E+009, -1.43859444364E+002, +0.00000000000E+000
+1.15600000000E+009, -1.44776931705E+002, +0.00000000000E+000
+1.15950000000E+009, -1.45822708389E+002, +0.00000000000E+000
+1.16300000000E+009, -1.46649128258E+002, +0.00000000000E+000
+1.16650000000E+009, -1.47361795396E+002, +0.00000000000E+000
+1.17000000000E+009, -1.47795642710E+002, +0.00000000000E+000
+1.17350000000E+009, -1.48754521503E+002, +0.00000000000E+000
+1.17700000000E+009, -1.49640754097E+002, +0.00000000000E+000
+1.18050000000E+009, -1.50560243278E+002, +0.00000000000E+000
+1.18400000000E+009, -1.51235532581E+002, +0.00000000000E+000
+1.18750000000E+009, -1.52471568920E+002, +0.00000000000E+000
+1.19100000000E+009, -1.53832634914E+002, +0.00000000000E+000
+1.19450000000E+009, -1.54994546371E+002, +0.00000000000E+000
+1.19800000000E+009, -1.55857135813E+002, +0.00000000000E+000
+1.20150000000E+009, -1.55997514719E+002, +0.00000000000E+000
+1.20500000000E+009, -1.57939231433E+002, +0.00000000000E+000
+1.20850000000E+009, -1.58097252720E+002, +0.00000000000E+000
+1.21200000000E+009, -1.59327676357E+002, +0.00000000000E+000
+1.21550000000E+009, -1.61034728904E+002, +0.00000000000E+000
+1.21900000000E+009, -1.61489217348E+002, +0.00000000000E+000
+1.22250000000E+009, -1.62786986055E+002, +0.00000000000E+000
+1.22600000000E+009, -1.63987012162E+002, +0.00000000000E+000
+1.22950000000E+009, -1.64617031958E+002, +0.00000000000E+000
+1.23300000000E+009, -1.66422477596E+002, +0.00000000000E+000
+1.23650000000E+009, -1.67188794929E+002, +0.00000000000E+000
+1.24000000000E+009, -1.67713454155E+002, +0.00000000000E+000
+1.24350000000E+009, -1.68655790073E+002, +0.00000000000E+000
+1.24700000000E+009, -1.69702836219E+002, +0.00000000000E+000
+1.25050000000E+009, -1.70720054354E+002, +0.00000000000E+000
+1.25400000000E+009, -1.71984064576E+002, +0.00000000000E+000
+1.25750000000E+009, -1.72540735452E+002, +0.00000000000E+000
+1.26100000000E+009, -1.73579551471E+002, +0.00000000000E+000
+1.26450000000E+009, -1.74529995990E+002, +0.00000000000E+000
+1.26800000000E+009, -1.75754836349E+002, +0.00000000000E+000
+1.27150000000E+009, -1.76516604995E+002, +0.00000000000E+000
+1.27500000000E+009, -1.77491577869E+002, +0.00000000000E+000
+1.27850000000E+009, -1.78284531919E+002, +0.00000000000E+000
+1.28200000000E+009, -1.79511969306E+002, +0.00000000000E+000
+1.28550000000E+009, +1.79974148785E+002, +0.00000000000E+000
+1.28900000000E+009, +1.78409557447E+002, +0.00000000000E+000
+1.29250000000E+009, +1.77505219150E+002, +0.00000000000E+000
+1.29600000000E+009, +1.77353110442E+002, +0.00000000000E+000
+1.29950000000E+009, +1.76007182242E+002, +0.00000000000E+000
+1.30300000000E+009, +1.74916558153E+002, +0.00000000000E+000
+1.30650000000E+009, +1.74045402158E+002, +0.00000000000E+000
+1.31000000000E+009, +1.73074366663E+002, +0.00000000000E+000
+1.31350000000E+009, +1.71928073589E+002, +0.00000000000E+000
+1.31700000000E+009, +1.71363747868E+002, +0.00000000000E+000
+1.32050000000E+009, +1.70601991501E+002, +0.00000000000E+000
+1.32400000000E+009, +1.68997477224E+002, +0.00000000000E+000
+1.32750000000E+009, +1.68534849630E+002, +0.00000000000E+000
+1.33100000000E+009, +1.67497576558E+002, +0.00000000000E+000
+1.33450000000E+009, +1.66188638733E+002, +0.00000000000E+000
+1.33800000000E+009, +1.65705034389E+002, +0.00000000000E+000
+1.34150000000E+009, +1.65076281014E+002, +0.00000000000E+000
+1.34500000000E+009, +1.63630504733E+002, +0.00000000000E+000
+1.34850000000E+009, +1.62966067381E+002, +0.00000000000E+000
+1.35200000000E+009, +1.61851542539E+002, +0.00000000000E+000
+1.35550000000E+009, +1.60928593369E+002, +0.00000000000E+000
+1.35900000000E+009, +1.60077163094E+002, +0.00000000000E+000
+1.36250000000E+009, +1.58671301367E+002, +0.00000000000E+000
+1.36600000000E+009, +1.57659508880E+002, +0.00000000000E+000
+1.36950000000E+009, +1.56519651043E+002, +0.00000000000E+000
+1.37300000000E+009, +1.55247413694E+002, +0.00000000000E+000
+1.37650000000E+009, +1.53965824973E+002, +0.00000000000E+000
+1.38000000000E+009, +1.53074868471E+002, +0.00000000000E+000
+1.38350000000E+009, +1.51201995436E+002, +0.00000000000E+000
+1.38700000000E+009, +1.50452942669E+002, +0.00000000000E+000
+1.39050000000E+009, +1.48830444745E+002, +0.00000000000E+000
+1.39400000000E+009, +1.47593002234E+002, +0.00000000000E+000
+1.39750000000E+009, +1.45988537671E+002, +0.00000000000E+000
+1.40100000000E+009, +1.44630839705E+002, +0.00000000000E+000
+1.40450000000E+009, +1.43019978017E+002, +0.00000000000E+000
+1.40800000000E+009, +1.41437808291E+002, +0.00000000000E+000
+1.41150000000E+009, +1.40262568711E+002, +0.00000000000E+000
+1.41500000000E+009, +1.38617655656E+002, +0.00000000000E+000
+1.41850000000E+009, +1.37673075433E+002, +0.00000000000E+000
+1.42200000000E+009, +1.36124963221E+002, +0.00000000000E+000
+1.42550000000E+009, +1.34764557810E+002, +0.00000000000E+000
+1.42900000000E+009, +1.32954943462E+002, +0.00000000000E+000
+1.43250000000E+009, +1.32266666256E+002, +0.00000000000E+000
+1.43600000000E+009, +1.30962888514E+002, +0.00000000000E+000
+1.43950000000E+009, +1.29610621142E+002, +0.00000000000E+000
+1.44300000000E+009, +1.28468875424E+002, +0.00000000000E+000
+1.44650000000E+009, +1.27400589441E+002, +0.00000000000E+000
+1.45000000000E+009, +1.26355596095E+002, +0.00000000000E+000
+1.45350000000E+009, +1.25392856752E+002, +0.00000000000E+000
+1.45700000000E+009, +1.24021396805E+002, +0.00000000000E+000
+1.46050000000E+009, +1.23210123294E+002, +0.00000000000E+000
+1.46400000000E+009, +1.21707546957E+002, +0.00000000000E+000
+1.46750000000E+009, +1.21077911654E+002, +0.00000000000E+000
+1.47100000000E+009, +1.19574433514E+002, +0.00000000000E+000
+1.47450000000E+009, +1.19275931252E+002, +0.00000000000E+000
+1.47800000000E+009, +1.17734559654E+002, +0.00000000000E+000
+1.48150000000E+009, +1.16556976788E+002, +0.00000000000E+000
+1.48500000000E+009, +1.15338454150E+002, +0.00000000000E+000
+1.48850000000E+009, +1.14328504747E+002, +0.00000000000E+000
+1.49200000000E+009, +1.12994540454E+002, +0.00000000000E+000
+1.49550000000E+009, +1.12128764594E+002, +0.00000000000E+000
+1.49900000000E+009, +1.11015168701E+002, +0.00000000000E+000
+1.50250000000E+009, +1.10077269682E+002, +0.00000000000E+000
+1.50600000000E+009, +1.08517590606E+002, +0.00000000000E+000
+1.50950000000E+009, +1.07494404655E+002, +0.00000000000E+000
+1.51300000000E+009, +1.06187876403E+002, +0.00000000000E+000
+1.51650000000E+009, +1.04992987943E+002, +0.00000000000E+000
+1.52000000000E+009, +1.03970306086E+002, +0.00000000000E+000
+1.52350000000E+009, +1.02602737112E+002, +0.00000000000E+000
+1.52700000000E+009, +1.01605370445E+002, +0.00000000000E+000
+1.53050000000E+009, +1.00287722145E+002, +0.00000000000E+000
+1.53400000000E+009, +9.92412844895E+001, +0.00000000000E+000
+1.53750000000E+009, +9.78486500611E+001, +0.00000000000E+000
+1.54100000000E+009, +9.70719349823E+001, +0.00000000000E+000
+1.54450000000E+009, +9.55550123274E+001, +0.00000000000E+000
+1.54800000000E+009, +9.43788035527E+001, +0.00000000000E+000
+1.55150000000E+009, +9.33212813028E+001, +0.00000000000E+000
+1.55500000000E+009, +9.21305286639E+001, +0.00000000000E+000
+1.55850000000E+009, +9.08107010362E+001, +0.00000000000E+000
+1.56200000000E+009, +8.94266694177E+001, +0.00000000000E+000
+1.56550000000E+009, +8.82805693938E+001, +0.00000000000E+000
+1.56900000000E+009, +8.70832318729E+001, +0.00000000000E+000
+1.57250000000E+009, +8.58608013834E+001, +0.00000000000E+000
+1.57600000000E+009, +8.44936973029E+001, +0.00000000000E+000
+1.57950000000E+009, +8.30328074230E+001, +0.00000000000E+000
+1.58300000000E+009, +8.22127580264E+001, +0.00000000000E+000
+1.58650000000E+009, +8.06702102075E+001, +0.00000000000E+000
+1.59000000000E+009, +7.97596905397E+001, +0.00000000000E+000
+1.59350000000E+009, +7.81799440806E+001, +0.00000000000E+000
+1.59700000000E+009, +7.70713192270E+001, +0.00000000000E+000
+1.60050000000E+009, +7.61795567007E+001, +0.00000000000E+000
+1.60400000000E+009, +7.43536193357E+001, +0.00000000000E+000
+1.60750000000E+009, +7.35708273997E+001, +0.00000000000E+000
+1.61100000000E+009, +7.22754537115E+001, +0.00000000000E+000
+1.61450000000E+009, +7.11210557366E+001, +0.00000000000E+000
+1.61800000000E+009, +6.97664091658E+001, +0.00000000000E+000
+1.62150000000E+009, +6.87991329527E+001, +0.00000000000E+000
+1.62500000000E+009, +6.75307144858E+001, +0.00000000000E+000
+1.62850000000E+009, +6.64922911707E+001, +0.00000000000E+000
+1.63200000000E+009, +6.53826221143E+001, +0.00000000000E+000
+1.63550000000E+009, +6.41283695276E+001, +0.00000000000E+000
+1.63900000000E+009, +6.29417157549E+001, +0.00000000000E+000
+1.64250000000E+009, +6.17544912892E+001, +0.00000000000E+000
+1.64600000000E+009, +6.02689759643E+001, +0.00000000000E+000
+1.64950000000E+009, +5.87714602700E+001, +0.00000000000E+000
+1.65300000000E+009, +5.77134087935E+001, +0.00000000000E+000
+1.65650000000E+009, +5.67177625430E+001, +0.00000000000E+000
+1.66000000000E+009, +5.55262755246E+001, +0.00000000000E+000
+1.66350000000E+009, +5.42578092033E+001, +0.00000000000E+000
+1.66700000000E+009, +5.27848209439E+001, +0.00000000000E+000
+1.67050000000E+009, +5.13099197793E+001, +0.00000000000E+000
+1.67400000000E+009, +5.05636533436E+001, +0.00000000000E+000
+1.67750000000E+009, +4.89733448263E+001, +0.00000000000E+000
+1.68100000000E+009, +4.79355513528E+001, +0.00000000000E+000
+1.68450000000E+009, +4.64744967214E+001, +0.00000000000E+000
+1.68800000000E+009, +4.53254210325E+001, +0.00000000000E+000
+1.69150000000E+009, +4.44292171532E+001, +0.00000000000E+000
+1.69500000000E+009, +4.31122518555E+001, +0.00000000000E+000
+1.69850000000E+009, +4.22838258354E+001, +0.00000000000E+000
+1.70200000000E+009, +4.11594840735E+001, +0.00000000000E+000
+1.70550000000E+009, +4.04737519742E+001, +0.00000000000E+000
+1.70900000000E+009, +3.94676238760E+001, +0.00000000000E+000
+1.71250000000E+009, +3.83595981987E+001, +0.00000000000E+000
+1.71600000000E+009, +3.73033640746E+001, +0.00000000000E+000
+1.71950000000E+009, +3.65696390619E+001, +0.00000000000E+000
+1.72300000000E+009, +3.57725467486E+001, +0.00000000000E+000
+1.72650000000E+009, +3.54621925151E+001, +0.00000000000E+000
+1.73000000000E+009, +3.44099605833E+001, +0.00000000000E+000
+1.73350000000E+009, +3.37244446430E+001, +0.00000000000E+000
+1.73700000000E+009, +3.26622844956E+001, +0.00000000000E+000
+1.74050000000E+009, +3.20532891523E+001, +0.00000000000E+000
+1.74400000000E+009, +3.12392984673E+001, +0.00000000000E+000
+1.74750000000E+009, +3.03527478323E+001, +0.00000000000E+000
+1.75100000000E+009, +2.97287001524E+001, +0.00000000000E+000
+1.75450000000E+009, +2.81729772281E+001, +0.00000000000E+000
+1.75800000000E+009, +2.75454993064E+001, +0.00000000000E+000
+1.76150000000E+009, +2.65652360202E+001, +0.00000000000E+000
+1.76500000000E+009, +2.56556047412E+001, +0.00000000000E+000
+1.76850000000E+009, +2.45372354744E+001, +0.00000000000E+000
+1.77200000000E+009, +2.37890644734E+001, +0.00000000000E+000
+1.77550000000E+009, +2.28019694284E+001, +0.00000000000E+000
+1.77900000000E+009, +2.15793843443E+001, +0.00000000000E+000
+1.78250000000E+009, +2.03002505575E+001, +0.00000000000E+000
+1.78600000000E+009, +1.91246537912E+001, +0.00000000000E+000
+1.78950000000E+009, +1.84097776684E+001, +0.00000000000E+000
+1.79300000000E+009, +1.74861352724E+001, +0.00000000000E+000
+1.79650000000E+009, +1.62512721626E+001, +0.00000000000E+000
+1.80000000000E+009, +1.50132876436E+001, +0.00000000000E+000
