"# Channel 1"
"# Trace 1"
Frequency, Formatted Data, Formatted Data
+1.10000000000E+009, -5.30047185461E+000, +0.00000000000E+000
+1.10350000000E+009, -5.31003776970E+000, +0.00000000000E+000
+1.10700000000E+009, -5.29688716259E+000, +0.00000000000E+000
+1.11050000000E+009, -5.33766887511E+000, +0.00000000000E+000
+1.11400000000E+009, -5.34555830709E+000, +0.00000000000E+000
+1.11750000000E+009, -5.40872798698E+000, +0.00000000000E+000
+1.12100000000E+009, -5.44625660660E+000, +0.00000000000E+000
+1.12450000000E+009, -5.46961774904E+000, +0.00000000000E+000
+1.12800000000E+009, -5.52826561080E+000, +0.00000000000E+000
+1.13150000000E+009, -5.58363939266E+000, +0.00000000000E+000
+1.13500000000E+009, -5.65743935434E+000, +0.00000000000E+000
+1.13850000000E+009, -5.69988592476E+000, +0.00000000000E+000
+1.14200000000E+009, -5.73303008256E+000, +0.00000000000E+000
+1.14550000000E+009, -5.84994028107E+000, +0.00000000000E+000
+1.14900000000E+009, -5.93827315873E+000, +0.00000000000E+000
+1.15250000000E+009, -6.00540257083E+000, +0.00000000000E+000
+1.15600000000E+009, -6.13513863483E+000, +0.00000000000E+000
+1.15950000000E+009, -6.21550460816E+000, +0.00000000000E+000
+1.16300000000E+009, -6.29404621007E+000, +0.00000000000E+000
+1.16650000000E+009, -6.43419735148E+000, +0.00000000000E+000
+1.17000000000E+009, -6.51838290441E+000, +0.00000000000E+000
+1.17350000000E+009, -6.64154840753E+000, +0.00000000000E+000
+1.17700000000E+009, -6.73591061018E+000, +0.00000000000E+000
+1.18050000000E+009, -6.85151626440E+000, +0.00000000000E+000
+1.18400000000E+009, -6.95844168143E+000, +0.00000000000E+000
+1.18750000000E+009, -7.06806240211E+000, +0.00000000000E+000
+1.19100000000E+009, -7.20653176255E+000, +0.00000000000E+000
+1.19450000000E+009, -7.30800419908E+000, +0.00000000000E+000
+1.19800000000E+009, -7.40637489586E+000, +0.00000000000E+000
+1.20150000000E+009, -7.51857840016E+000, +0.00000000000E+000
+1.20500000000E+009, -7.59561611133E+000, +0.00000000000E+000
+1.20850000000E+009, -7.66611721696E+000, +0.00000000000E+000
+1.21200000000E+009, -7.74845398938E+000, +0.00000000000E+000
+1.21550000000E+009, -7.81133359554E+000, +0.00000000000E+000
+1.21900000000E+009, -7.83212314462E+000, +0.00000000000E+000
+1.22250000000E+009, -7.88461163877E+000, +0.00000000000E+000
+1.22600000000E+009, -7.92436154242E+000, +0.00000000000E+000
+1.22950000000E+009, -7.90739844232E+000, +0.00000000000E+000
+1.23300000000E+009, -7.91121160289E+000, +0.00000000000E+000
+1.23650000000E+009, -7.92153970019E+000, +0.00000000000E+000
+1.24000000000E+009, -7.91340528721E+000, +0.00000000000E+000
+1.24350000000E+009, -7.89247374122E+000, +0.00000000000E+000
+1.24700000000E+009, -7.88335428932E+000, +0.00000000000E+000
+1.25050000000E+009, -7.85643403268E+000, +0.00000000000E+000
+1.25400000000E+009, -7.80927783298E+000, +0.00000000000E+000
+1.25750000000E+009, -7.77247653382E+000, +0.00000000000E+000
+1.26100000000E+009, -7.75334256921E+000, +0.00000000000E+000
+1.26450000000E+009, -7.72459742985E+000, +0.00000000000E+000
+1.26800000000E+009, -7.66004836360E+000, +0.00000000000E+000
+1.27150000000E+009, -7.65714648556E+000, +0.00000000000E+000
+1.27500000000E+009, -7.62243542258E+000, +0.00000000000E+000
+1.27850000000E+009, -7.57858272144E+000, +0.00000000000E+000
+1.28200000000E+009, -7.56493729939E+000, +0.00000000000E+000
+1.28550000000E+009, -7.56494322151E+000, +0.00000000000E+000
+1.28900000000E+009, -7.52829864582E+000, +0.00000000000E+000
+1.29250000000E+009, -7.53860019559E+000, +0.00000000000E+000
+1.29600000000E+009, -7.49279949138E+000, +0.00000000000E+000
+1.29950000000E+009, -7.50571433609E+000, +0.00000000000E+000
+1.30300000000E+009, -7.53249293824E+000, +0.00000000000E+000
+1.30650000000E+009, -7.54488937573E+000, +0.00000000000E+000
+1.31000000000E+009, -7.57805149893E+000, +0.00000000000E+000
+1.31350000000E+009, -7.61969295437E+000, +0.00000000000E+000
+1.31700000000E+009, -7.62017706691E+000, +0.00000000000E+000
+1.32050000000E+009, -7.68239262053E+000, +0.00000000000E+000
+1.32400000000E+009, -7.72668941403E+000, +0.00000000000E+000
+1.32750000000E+009, -7.81673786553E+000, +0.00000000000E+000
+1.33100000000E+009, -7.86390406552E+000, +0.00000000000E+000
+1.33450000000E+009, -7.93471256658E+000, +0.00000000000E+000
+1.33800000000E+009, -8.00415307612E+000, +0.00000000000E+000
+1.34150000000E+009, -8.15113614797E+000, +0.00000000000E+000
+1.34500000000E+009, -8.20974715800E+000, +0.00000000000E+000
+1.34850000000E+009, -8.34887348787E+000, +0.00000000000E+000
+1.35200000000E+009, -8.42287805863E+000, +0.00000000000E+000
+1.35550000000E+009, -8.57748353522E+000, +0.00000000000E+000
+1.35900000000E+009, -8.70021986586E+000, +0.00000000000E+000
+1.36250000000E+009, -8.86527422713E+000, +0.00000000000E+000
+1.36600000000E+009, -9.00681513630E+000, +0.00000000000E+000
+1.36950000000E+009, -9.15028008751E+000, +0.00000000000E+000
+1.37300000000E+009, -9.33634845336E+000, +0.00000000000E+000
+1.37650000000E+009, -9.48575234572E+000, +0.00000000000E+000
+1.38000000000E+009, -9.66400691048E+000, +0.00000000000E+000
+1.38350000000E+009, -9.83508224648E+000, +0.00000000000E+000
+1.38700000000E+009, -9.98869998720E+000, +0.00000000000E+000
+1.39050000000E+009, -1.01377313156E+001, +0.00000000000E+000
+1.39400000000E+009, -1.02966429118E+001, +0.00000000000E+000
+1.39750000000E+009, -1.04412924426E+001, +0.00000000000E+000
+1.40100000000E+009, -1.06039710558E+001, +0.00000000000E+000
+1.40450000000E+009, -1.07258959543E+001, +0.00000000000E+000
+1.40800000000E+009, -1.08432671195E+001, +0.00000000000E+000
+1.41150000000E+009, -1.09419609071E+001, +0.00000000000E+000
+1.41500000000E+009, -1.10066505073E+001, +0.00000000000E+000
+1.41850000000E+009, -1.10959147749E+001, +0.00000000000E+000
+1.42200000000E+009, -1.10898073879E+001, +0.00000000000E+000
+1.42550000000E+009, -1.11081686358E+001, +0.00000000000E+000
+1.42900000000E+009, -1.11086430740E+001, +0.00000000000E+000
+1.43250000000E+009, -1.10647551972E+001, +0.00000000000E+000
+1.43600000000E+009, -1.10325133482E+001, +0.00000000000E+000
+1.43950000000E+009, -1.09517139893E+001, +0.00000000000E+000
+1.44300000000E+009, -1.08827765274E+001, +0.00000000000E+000
+1.44650000000E+009, -1.07886644866E+001, +0.00000000000E+000
+1.45000000000E+009, -1.06499107772E+001, +0.00000000000E+000
+1.45350000000E+009, -1.05504551183E+001, +0.00000000000E+000
+1.45700000000E+009, -1.04349782594E+001, +0.00000000000E+000
+1.46050000000E+009, -1.03422502211E+001, +0.00000000000E+000
+1.46400000000E+009, -1.01660812019E+001, +0.00000000000E+000
+1.46750000000E+009, -1.00233839492E+001, +0.00000000000E+000
+1.47100000000E+009, -9.91202239428E+000, +0.00000000000E+000
+1.47450000000E+009, -9.76515534158E+000, +0.00000000000E+000
+1.47800000000E+009, -9.62203462127E+000, +0.00000000000E+000
+1.48150000000E+009, -9.51804838311E+000, +0.00000000000E+000
+1.48500000000E+009, -9.36897542398E+000, +0.00000000000E+000
+1.48850000000E+009, -9.26904908625E+000, +0.00000000000E+000
+1.49200000000E+009, -9.13727457012E+000, +0.00000000000E+000
+1.49550000000E+009, -9.02144263027E+000, +0.00000000000E+000
+1.49900000000E+009, -8.90415846674E+000, +0.00000000000E+000
+1.50250000000E+009, -8.82342372078E+000, +0.00000000000E+000
+1.50600000000E+009, -8.68670195349E+000, +0.00000000000E+000
+1.50950000000E+009, -8.64737218984E+000, +0.00000000000E+000
+1.51300000000E+009, -8.55222767192E+000, +0.00000000000E+000
+1.51650000000E+009, -8.46826351467E+000, +0.00000000000E+000
+1.52000000000E+009, -8.36423043436E+000, +0.00000000000E+000
+1.52350000000E+009, -8.32718332438E+000, +0.00000000000E+000
+1.52700000000E+009, -8.22194166842E+000, +0.00000000000E+000
+1.53050000000E+009, -8.21028252161E+000, +0.00000000000E+000
+1.53400000000E+009, -8.15276680460E+000, +0.00000000000E+000
+1.53750000000E+009, -8.10775716909E+000, +0.00000000000E+000
+1.54100000000E+009, -8.09071786354E+000, +0.00000000000E+000
+1.54450000000E+009, -8.06019426622E+000, +0.00000000000E+000
+1.54800000000E+009, -8.06806243917E+000, +0.00000000000E+000
+1.55150000000E+009, -8.03502948426E+000, +0.00000000000E+000
+1.55500000000E+009, -8.03315276202E+000, +0.00000000000E+000
+1.55850000000E+009, -8.03281662895E+000, +0.00000000000E+000
+1.56200000000E+009, -8.04832215806E+000, +0.00000000000E+000
+1.56550000000E+009, -8.07760573661E+000, +0.00000000000E+000
+1.56900000000E+009, -8.09245776638E+000, +0.00000000000E+000
+1.57250000000E+009, -8.14447793996E+000, +0.00000000000E+000
+1.57600000000E+009, -8.20037417915E+000, +0.00000000000E+000
+1.57950000000E+009, -8.22211906659E+000, +0.00000000000E+000
+1.58300000000E+009, -8.28545113856E+000, +0.00000000000E+000
+1.58650000000E+009, -8.33672693873E+000, +0.00000000000E+000
+1.59000000000E+009, -8.38086059596E+000, +0.00000000000E+000
+1.59350000000E+009, -8.42553191518E+000, +0.00000000000E+000
+1.59700000000E+009, -8.44392013414E+000, +0.00000000000E+000
+1.60050000000E+009, -8.49554215372E+000, +0.00000000000E+000
+1.60400000000E+009, -8.54592545354E+000, +0.00000000000E+000
+1.60750000000E+009, -8.56494814447E+000, +0.00000000000E+000
+1.61100000000E+009, -8.60521210600E+000, +0.00000000000E+000
+1.61450000000E+009, -8.58073431287E+000, +0.00000000000E+000
+1.61800000000E+009, -8.57077275482E+000, +0.00000000000E+000
+1.62150000000E+009, -8.53553348999E+000, +0.00000000000E+000
+1.62500000000E+009, -8.51606329601E+000, +0.00000000000E+000
+1.62850000000E+009, -8.45563793349E+000, +0.00000000000E+000
+1.63200000000E+009, -8.34502756345E+000, +0.00000000000E+000
+1.63550000000E+009, -8.26984861895E+000, +0.00000000000E+000
+1.63900000000E+009, -8.12309162266E+000, +0.00000000000E+000
+1.64250000000E+009, -8.05125435854E+000, +0.00000000000E+000
+1.64600000000E+009, -7.91091327604E+000, +0.00000000000E+000
+1.64950000000E+009, -7.76345339895E+000, +0.00000000000E+000
+1.65300000000E+009, -7.58275353262E+000, +0.00000000000E+000
+1.65650000000E+009, -7.42433115169E+000, +0.00000000000E+000
+1.66000000000E+009, -7.26360788837E+000, +0.00000000000E+000
+1.66350000000E+009, -7.06633009337E+000, +0.00000000000E+000
+1.66700000000E+009, -6.92491238227E+000, +0.00000000000E+000
+1.67050000000E+009, -6.76228607054E+000, +0.00000000000E+000
+1.67400000000E+009, -6.57578529519E+000, +0.00000000000E+000
+1.67750000000E+009, -6.39332814223E+000, +0.00000000000E+000
+1.68100000000E+009, -6.24046913008E+000, +0.00000000000E+000
+1.68450000000E+009, -6.04235440742E+000, +0.00000000000E+000
+1.68800000000E+009, -5.89204921458E+000, +0.00000000000E+000
+1.69150000000E+009, -5.72943178512E+000, +0.00000000000E+000
+1.69500000000E+009, -5.60932012712E+000, +0.00000000000E+000
+1.69850000000E+009, -5.43485860737E+000, +0.00000000000E+000
+1.70200000000E+009, -5.31005812744E+000, +0.00000000000E+000
+1.70550000000E+009, -5.17155121628E+000, +0.00000000000E+000
+1.70900000000E+009, -5.06282906746E+000, +0.00000000000E+000
+1.71250000000E+009, -4.96849794960E+000, +0.00000000000E+000
+1.71600000000E+009, -4.84208157846E+000, +0.00000000000E+000
+1.71950000000E+009, -4.73341880059E+000, +0.00000000000E+000
+1.72300000000E+009, -4.65247805495E+000, +0.00000000000E+000
+1.72650000000E+009, -4.56018255029E+000, +0.00000000000E+000
+1.73000000000E+009, -4.49024494156E+000, +0.00000000000E+000
+1.73350000000E+009, -4.42939714076E+000, +0.00000000000E+000
+1.73700000000E+009, -4.33926598487E+000, +0.00000000000E+000
+1.74050000000E+009, -4.30102242834E+000, +0.00000000000E+000
+1.74400000000E+009, -4.24820272890E+000, +0.00000000000E+000
+1.74750000000E+009, -4.19668452290E+000, +0.00000000000E+000
+1.75100000000E+009, -4.15654956721E+000, +0.00000000000E+000
+1.75450000000E+009, -4.12500486878E+000, +0.00000000000E+000
+1.75800000000E+009, -4.08681572532E+000, +0.00000000000E+000
+1.76150000000E+009, -4.08595597271E+000, +0.00000000000E+000
+1.76500000000E+009, -4.06703732727E+000, +0.00000000000E+000
+1.76850000000E+009, -4.06831219467E+000, +0.00000000000E+000
+1.77200000000E+009, -4.05443775724E+000, +0.00000000000E+000
+1.77550000000E+009, -4.05633908425E+000, +0.00000000000E+000
+1.77900000000E+009, -4.04413372150E+000, +0.00000000000E+000
+1.78250000000E+009, -4.08152418564E+000, +0.00000000000E+000
+1.78600000000E+009, -4.06611140479E+000, +0.00000000000E+000
+1.78950000000E+009, -4.05835973107E+000, +0.00000000000E+000
+1.79300000000E+009, -4.10405601782E+000, +0.00000000000E+000
+1.79650000000E+009, -4.10694475363E+000, +0.00000000000E+000
+1.80000000000E+009, -4.12137759547E+000, +0.00000000000E+000
